 # Detector n:  1  PosTop    
 # N. of energy intervals 343
  1.0000100E-14  2.0000000E-13   0.000000       0.000000    
  2.0000000E-13  2.9297300E-13   0.000000       0.000000    
  2.9297300E-13  4.2916701E-13   0.000000       0.000000    
  4.2916701E-13  6.2867300E-13   0.000000       0.000000    
  6.2867300E-13  9.2092198E-13   0.000000       0.000000    
  9.2092198E-13  1.3490300E-12   0.000000       0.000000    
  1.3490300E-12  1.9761499E-12   0.000000       0.000000    
  1.9761499E-12  2.8947901E-12   0.000000       0.000000    
  2.8947901E-12  4.2404799E-12   0.000000       0.000000    
  4.2404799E-12  6.2117499E-12   0.000000       0.000000    
  6.2117499E-12  9.0993801E-12  2.8246231E+09   95.30653    
  9.0993801E-12  1.3329400E-11  6.4876867E+09   57.45092    
  1.3329400E-11  1.9525799E-11  1.5871534E+10   39.26466    
  1.9525799E-11  2.8602700E-11  5.6768553E+09   57.51537    
  2.8602700E-11  4.1899099E-11  6.7515817E+09   30.57375    
  4.1899099E-11  6.1376598E-11  4.9049989E+09   30.98245    
  6.1376598E-11  8.9908601E-11  2.0209837E+09   62.11446    
  8.9908601E-11  1.3170399E-10  1.2601310E+08   95.30653    
  1.3170399E-10  1.9292901E-10  1.4104605E+08   82.77477    
  1.9292901E-10  2.8261499E-10  1.9903957E+08   66.86674    
  2.8261499E-10  4.1399401E-10  1.7419064E+08   68.40527    
  4.1399401E-10  5.3157900E-10  3.0156144E+08   52.63610    
  5.3157900E-10  6.2506200E-10  1.1433770E+08   84.28283    
  6.2506200E-10  6.8256001E-10  8.8114522E+08   55.26332    
  6.8256001E-10  8.3368101E-10   0.000000       0.000000    
  8.3368101E-10  8.7642499E-10   0.000000       0.000000    
  8.7642499E-10  1.1253500E-09   0.000000       0.000000    
  1.1253500E-09  1.4449800E-09   0.000000       0.000000    
  1.4449800E-09  1.8553900E-09  3.8961604E+07   69.42404    
  1.8553900E-09  2.3823701E-09  2.3026832E+07   95.30653    
  2.3823701E-09  3.0590199E-09   0.000000       0.000000    
  3.0590199E-09  3.9278598E-09  1.9638784E+07   62.25101    
  3.9278598E-09  5.0434799E-09  1.0404041E+07   95.30653    
  5.0434799E-09  6.4759500E-09  3.0870238E+07   41.61322    
  6.4759500E-09  8.3152898E-09  1.0908977E+07   66.94181    
  8.3152898E-09  1.0677000E-08   1768711.       95.30653    
  1.0677000E-08  1.3709600E-08   6139748.       66.81144    
  1.3709600E-08  1.7603501E-08   4892662.       66.70154    
  1.7603501E-08  2.2603301E-08   787377.5       95.30653    
  2.2603301E-08  2.9023200E-08   968371.8       95.30653    
  2.9023200E-08  3.7266499E-08   2005667.       63.28714    
  3.7266499E-08  4.7851199E-08   2524270.       67.64108    
  4.7851199E-08  6.1442101E-08   4604736.       64.72791    
  6.1442101E-08  7.8893301E-08   1434610.       56.00022    
  7.8893301E-08  1.0130100E-07   520948.6       95.30653    
  1.0130100E-07  1.3007300E-07   517002.7       54.53228    
  1.3007300E-07  1.6701701E-07   524231.3       69.99428    
  1.6701701E-07  2.1445400E-07   359504.4       61.47992    
  2.1445400E-07  2.7536399E-07   138846.9       95.30653    
  2.7536399E-07  3.5357499E-07   338519.1       63.61446    
  3.5357499E-07  4.5399901E-07   432440.1       46.90928    
  4.5399901E-07  5.8294700E-07   136957.3       95.30653    
  5.8294700E-07  7.4851800E-07   34401.08       95.30653    
  7.4851800E-07  9.6111603E-07   144309.1       70.65330    
  9.6111603E-07  1.2341000E-06   38137.38       95.30653    
  1.2341000E-06  1.3638900E-06   0.000000       0.000000    
  1.3638900E-06  1.5073300E-06   63686.77       95.30653    
  1.5073300E-06  1.5846100E-06   0.000000       0.000000    
  1.5846100E-06  1.6658601E-06   251416.7       66.74227    
  1.6658601E-06  1.8410600E-06   0.000000       0.000000    
  1.8410600E-06  2.0346799E-06   0.000000       0.000000    
  2.0346799E-06  2.2486699E-06   0.000000       0.000000    
  2.2486699E-06  2.4851699E-06   41178.05       95.30653    
  2.4851699E-06  2.6125899E-06   0.000000       0.000000    
  2.6125899E-06  2.7465401E-06   0.000000       0.000000    
  2.7465401E-06  2.8634900E-06   69954.96       95.30653    
  2.8634900E-06  3.0353899E-06   0.000000       0.000000    
  3.0353899E-06  3.3546301E-06   33220.03       73.08206    
  3.3546301E-06  3.7074401E-06   0.000000       0.000000    
  3.7074401E-06  4.0973500E-06   5046.557       95.30653    
  4.0973500E-06  4.3074201E-06   0.000000       0.000000    
  4.3074201E-06  4.5282700E-06   0.000000       0.000000    
  4.5282700E-06  5.0045101E-06   0.000000       0.000000    
  5.0045101E-06  5.5308401E-06   16380.45       95.30653    
  5.5308401E-06  6.2672698E-06   7410.334       95.30653    
  6.2672698E-06  7.1017398E-06   0.000000       0.000000    
  7.1017398E-06  8.0473301E-06   1372.477       95.30653    
  8.0473301E-06  9.1188203E-06   12804.78       73.13111    
  9.1188203E-06  1.0333000E-05   8444.519       95.30653    
  1.0333000E-05  1.1708800E-05   7314.032       95.30653    
  1.1708800E-05  1.3267800E-05   3094.058       95.30653    
  1.3267800E-05  1.5034400E-05   23583.95       46.90698    
  1.5034400E-05  1.7036200E-05   14505.36       52.45134    
  1.7036200E-05  1.9304500E-05   18332.28       48.90507    
  1.9304500E-05  2.1334799E-05   2050.656       95.30653    
  2.1334799E-05  2.1874899E-05   0.000000       0.000000    
  2.1874899E-05  2.3578599E-05   6129.697       95.30653    
  2.3578599E-05  2.4175501E-05   21835.31       65.56812    
  2.4175501E-05  2.4787500E-05   0.000000       0.000000    
  2.4787500E-05  2.6058400E-05   2620.242       95.30653    
  2.6058400E-05  2.8087899E-05   2725.154       95.30653    
  2.8087899E-05  3.1827800E-05   2392.357       70.61376    
  3.1827800E-05  3.4306700E-05   7567.383       66.79154    
  3.4306700E-05  3.5175199E-05   8680.142       95.30653    
  3.5175199E-05  3.6065601E-05   0.000000       0.000000    
  3.6065601E-05  4.0867701E-05   862.1878       95.30653    
  4.0867701E-05  4.6309200E-05   2701.378       68.45976    
  4.6309200E-05  5.2475199E-05   1402.965       95.30653    
  5.2475199E-05  5.6562199E-05   0.000000       0.000000    
  5.6562199E-05  5.9462200E-05   3447.873       95.30653    
  5.9462200E-05  6.2510902E-05   2093.712       95.30653    
  6.2510902E-05  6.7379500E-05   789.7093       95.30653    
  6.7379500E-05  7.6350902E-05   6001.022       42.08029    
  7.6350902E-05  8.6516899E-05   194.9470       95.30653    
  8.6516899E-05  9.8036500E-05   0.000000       0.000000    
  9.8036500E-05  1.1109000E-04   1280.351       73.05021    
  1.1109000E-04  1.1678600E-04   0.000000       0.000000    
  1.1678600E-04  1.2277300E-04   1802.342       95.30653    
  1.2277300E-04  1.2906799E-04   0.000000       0.000000    
  1.2906799E-04  1.3568600E-04   0.000000       0.000000    
  1.3568600E-04  1.4264201E-04   1190.504       95.30653    
  1.4264201E-04  1.4995600E-04   0.000000       0.000000    
  1.4995600E-04  1.5764400E-04   329.9626       95.30653    
  1.5764400E-04  1.6163501E-04   441.7713       95.30653    
  1.6163501E-04  1.6572700E-04   0.000000       0.000000    
  1.6572700E-04  1.6992200E-04   5174.701       68.04115    
  1.6992200E-04  1.7422400E-04   2367.279       95.30653    
  1.7422400E-04  1.8315599E-04   1170.205       95.30653    
  1.8315599E-04  1.9254700E-04   0.000000       0.000000    
  1.9254700E-04  2.0241900E-04   298.7749       95.30653    
  2.0241900E-04  2.1279699E-04   1093.890       66.87242    
  2.1279699E-04  2.2370800E-04   0.000000       0.000000    
  2.2370800E-04  2.3517800E-04   0.000000       0.000000    
  2.3517800E-04  2.4723500E-04   367.5941       95.30653    
  2.4723500E-04  2.5991100E-04   0.000000       0.000000    
  2.5991100E-04  2.7323700E-04   862.8818       69.41098    
  2.7323700E-04  2.8015400E-04   1057.652       95.30653    
  2.8015400E-04  2.8724599E-04   0.000000       0.000000    
  2.8724599E-04  2.9451799E-04   0.000000       0.000000    
  2.9451799E-04  3.0197401E-04   0.000000       0.000000    
  3.0197401E-04  3.0961799E-04   2314.973       67.53498    
  3.0961799E-04  3.1745600E-04   0.000000       0.000000    
  3.1745600E-04  3.3373301E-04   0.000000       0.000000    
  3.3373301E-04  3.5084400E-04   772.5393       71.82163    
  3.5084400E-04  3.6883200E-04   0.000000       0.000000    
  3.6883200E-04  3.8774201E-04   1038.909       66.72141    
  3.8774201E-04  4.0762199E-04   720.4834       88.00964    
  4.0762199E-04  4.2852099E-04   433.2958       95.30653    
  4.2852099E-04  4.5049199E-04   0.000000       0.000000    
  4.5049199E-04  4.7358900E-04   658.8750       67.48134    
  4.7358900E-04  4.9787102E-04   334.3371       95.30653    
  4.9787102E-04  5.1047403E-04   0.000000       0.000000    
  5.1047403E-04  5.2339700E-04   0.000000       0.000000    
  5.2339700E-04  5.3664698E-04   0.000000       0.000000    
  5.3664698E-04  5.5023201E-04   0.000000       0.000000    
  5.5023201E-04  5.7844300E-04   657.4128       67.52605    
  5.7844300E-04  6.0810102E-04   0.000000       0.000000    
  6.0810102E-04  6.3927902E-04   342.4367       90.26802    
  6.3927902E-04  6.7205500E-04   238.5436       95.30653    
  6.7205500E-04  7.0651202E-04   600.2882       66.87871    
  7.0651202E-04  7.4273598E-04   0.000000       0.000000    
  7.4273598E-04  7.8081700E-04   0.000000       0.000000    
  7.8081700E-04  8.2085002E-04   260.6647       95.30653    
  8.2085002E-04  8.6293602E-04   208.6417       71.15559    
  8.6293602E-04  9.0717903E-04   679.6178       53.96223    
  9.0717903E-04  9.5369201E-04   0.000000       0.000000    
  9.5369201E-04  9.6163998E-04   0.000000       0.000000    
  9.6163998E-04  9.7783399E-04   0.000000       0.000000    
  9.7783399E-04  1.0025901E-03   0.000000       0.000000    
  1.0025901E-03  1.0539900E-03   291.8286       75.71976    
  1.0539900E-03  1.1080300E-03   264.1029       68.16540    
  1.1080300E-03  1.1648400E-03   478.7332       55.94358    
  1.1648400E-03  1.1943300E-03   0.000000       0.000000    
  1.1943300E-03  1.2245600E-03   30.77921       95.30653    
  1.2245600E-03  1.2873500E-03   0.000000       0.000000    
  1.2873500E-03  1.3533500E-03   74.85733       95.30653    
  1.3533500E-03  1.4227401E-03   158.6508       95.30653    
  1.4227401E-03  1.4956900E-03   281.7450       55.28716    
  1.4956900E-03  1.5335500E-03   0.000000       0.000000    
  1.5335500E-03  1.5723699E-03   0.000000       0.000000    
  1.5723699E-03  1.6121800E-03   543.0712       62.85160    
  1.6121800E-03  1.6529900E-03   235.9644       95.30653    
  1.6529900E-03  1.7377400E-03   188.0715       67.04303    
  1.7377400E-03  1.8268300E-03   176.0180       73.13719    
  1.8268300E-03  1.8730800E-03   0.000000       0.000000    
  1.8730800E-03  1.9205000E-03   56.77716       95.30653    
  1.9205000E-03  1.9691200E-03   385.7173       95.30653    
  1.9691200E-03  2.0189700E-03   201.0527       95.30653    
  2.0189700E-03  2.1224800E-03   0.000000       0.000000    
  2.1224800E-03  2.2313001E-03   131.0755       59.35064    
  2.2313001E-03  2.2688799E-03   0.000000       0.000000    
  2.2688799E-03  2.3068599E-03   366.4844       64.00473    
  2.3068599E-03  2.3457000E-03   122.4480       95.30653    
  2.3457000E-03  2.3652499E-03   126.8879       95.30653    
  2.3652499E-03  2.3852000E-03   0.000000       0.000000    
  2.3852000E-03  2.4251300E-03   100.6749       95.30653    
  2.4251300E-03  2.4659701E-03   0.000000       0.000000    
  2.4659701E-03  2.5923999E-03   156.8331       56.95292    
  2.5923999E-03  2.7253199E-03   117.3094       67.43245    
  2.7253199E-03  2.8650500E-03   98.51911       95.30653    
  2.8650500E-03  3.0119400E-03   182.1613       54.62549    
  3.0119400E-03  3.0881900E-03   0.000000       0.000000    
  3.0881900E-03  3.1663701E-03   197.1598       55.78391    
  3.1663701E-03  3.2465300E-03   0.000000       0.000000    
  3.2465300E-03  3.3287101E-03   0.000000       0.000000    
  3.3287101E-03  3.4993801E-03   0.000000       0.000000    
  3.4993801E-03  3.6787901E-03   52.64853       87.84415    
  3.6787901E-03  3.8674099E-03   0.000000       0.000000    
  3.8674099E-03  4.0656999E-03   12.16911       95.30653    
  4.0656999E-03  4.2741499E-03   9.238480       95.30653    
  4.2741499E-03  4.4932901E-03   102.1746       60.51850    
  4.4932901E-03  4.6070400E-03   82.23137       95.30653    
  4.6070400E-03  4.7236700E-03   79.40784       95.30653    
  4.7236700E-03  4.8432499E-03   0.000000       0.000000    
  4.8432499E-03  4.9658502E-03   44.42576       95.30653    
  4.9658502E-03  5.2204598E-03   0.000000       0.000000    
  5.2204598E-03  5.4881200E-03   32.12097       95.30653    
  5.4881200E-03  5.7695000E-03   49.01854       77.15327    
  5.7695000E-03  5.9155500E-03   0.000000       0.000000    
  5.9155500E-03  6.0653100E-03   4.961965       95.30653    
  6.0653100E-03  6.2188501E-03   0.000000       0.000000    
  6.2188501E-03  6.3762800E-03   0.000000       0.000000    
  6.3762800E-03  6.5377001E-03   134.9599       68.37980    
  6.5377001E-03  6.5923799E-03   0.000000       0.000000    
  6.5923799E-03  6.6475999E-03   0.000000       0.000000    
  6.6475999E-03  6.7031998E-03   0.000000       0.000000    
  6.7031998E-03  6.8728901E-03   18.35002       95.30653    
  6.8728901E-03  7.0468802E-03   130.5219       67.15173    
  7.0468802E-03  7.2252699E-03   0.000000       0.000000    
  7.2252699E-03  7.4081798E-03   0.000000       0.000000    
  7.4081798E-03  7.5957198E-03   0.000000       0.000000    
  7.5957198E-03  7.7880099E-03   0.000000       0.000000    
  7.7880099E-03  7.9851598E-03   40.36597       95.30653    
  7.9851598E-03  8.1873098E-03   0.000000       0.000000    
  8.1873098E-03  8.3945701E-03   0.000000       0.000000    
  8.3945701E-03  8.6070802E-03   101.3675       59.10420    
  8.6070802E-03  8.8249696E-03   0.000000       0.000000    
  8.8249696E-03  9.0483697E-03   0.000000       0.000000    
  9.0483697E-03  9.2774397E-03   0.000000       0.000000    
  9.2774397E-03  9.5122904E-03   0.000000       0.000000    
  9.5122904E-03  9.7530996E-03   29.42587       95.30653    
  9.7530996E-03  9.9999998E-03   0.000000       0.000000    
  9.9999998E-03  1.0253200E-02   0.000000       0.000000    
  1.0253200E-02  1.0512700E-02   0.000000       0.000000    
  1.0512700E-02  1.0778800E-02   0.000000       0.000000    
  1.0778800E-02  1.1051700E-02   0.000000       0.000000    
  1.1051700E-02  1.1331500E-02   0.000000       0.000000    
  1.1331500E-02  1.1618300E-02   0.000000       0.000000    
  1.1618300E-02  1.1912500E-02   20.95733       95.30653    
  1.1912500E-02  1.2214000E-02   0.000000       0.000000    
  1.2214000E-02  1.2523200E-02   0.000000       0.000000    
  1.2523200E-02  1.2840200E-02   28.61472       95.30653    
  1.2840200E-02  1.3165300E-02   20.79899       95.30653    
  1.3165300E-02  1.3498600E-02   0.000000       0.000000    
  1.3498600E-02  1.3840300E-02   0.000000       0.000000    
  1.3840300E-02  1.4190700E-02   0.000000       0.000000    
  1.4190700E-02  1.4549900E-02   5.169850       95.30653    
  1.4549900E-02  1.4918300E-02   4.146960       70.05896    
  1.4918300E-02  1.5295900E-02   0.000000       0.000000    
  1.5295900E-02  1.5683100E-02   21.02080       95.30653    
  1.5683100E-02  1.6080100E-02   22.95374       95.30653    
  1.6080100E-02  1.6487200E-02   0.000000       0.000000    
  1.6487200E-02  1.6904600E-02   24.37025       93.12110    
  1.6904600E-02  1.7332500E-02   12.41395       68.00434    
  1.7332500E-02  1.7771300E-02   20.71597       94.46365    
  1.7771300E-02  1.8221200E-02   4.805711       95.30653    
  1.8221200E-02  1.8682500E-02   19.61810       95.30653    
  1.8682500E-02  1.9155400E-02   28.77420       66.70930    
  1.9155400E-02  1.9640300E-02   1.711116       95.30653    
  1.9640300E-02  2.0000000E-02   47.95732       66.80428    
  2.0000000E-02  2.2784740E-02   14.37151       44.98774    
  2.2784740E-02  2.5957221E-02   6.629457       58.61565    
  2.5957221E-02  2.9571427E-02   8.013249       52.85662    
  2.9571427E-02  3.3688866E-02   2.496912       93.62850    
  3.3688866E-02  3.8379602E-02   9.308854       40.31343    
  3.8379602E-02  4.3723468E-02   5.996480       46.88895    
  4.3723468E-02  4.9811393E-02   3.510412       57.38139    
  4.9811393E-02  5.6746982E-02   12.24866       29.23740    
  5.6746982E-02  6.4648263E-02   7.213905       43.83734    
  6.4648263E-02  7.3649697E-02   7.592589       33.83916    
  7.3649697E-02  8.3904468E-02   4.749726       39.03066    
  8.3904468E-02  9.5587075E-02   3.927269       38.21002    
  9.5587075E-02  0.1088963       4.146595       37.04454    
  0.1088963      0.1240587       4.250887       34.11774    
  0.1240587      0.1413323       3.242737       44.28266    
  0.1413323      0.1610110       2.571660       40.89848    
  0.1610110      0.1834297      0.5008946       95.30653    
  0.1834297      0.2089699       1.954647       50.00481    
  0.2089699      0.2380663      0.4409442       66.72743    
  0.2380663      0.2712139      0.2410405       67.40958    
  0.2712139      0.3089769       0.000000       0.000000    
  0.3089769      0.3519980       0.000000       0.000000    
  0.3519980      0.4010091      4.6210065E-02   95.30653    
  0.4010091      0.4568444       0.000000       0.000000    
  0.4568444      0.5204541       0.000000       0.000000    
  0.5204541      0.5929207       0.000000       0.000000    
  0.5929207      0.6754771       0.000000       0.000000    
  0.6754771      0.7695286       0.000000       0.000000    
  0.7695286      0.8766755       0.000000       0.000000    
  0.8766755      0.9987412       0.000000       0.000000    
  0.9987412       1.137803       0.000000       0.000000    
   1.137803       1.296227       0.000000       0.000000    
   1.296227       1.476710       0.000000       0.000000    
   1.476710       1.682323       0.000000       0.000000    
   1.682323       1.916565       0.000000       0.000000    
   1.916565       2.183421       0.000000       0.000000    
   2.183421       2.487434       0.000000       0.000000    
   2.487434       2.833777       0.000000       0.000000    
   2.833777       3.228344       0.000000       0.000000    
   3.228344       3.677850       0.000000       0.000000    
   3.677850       4.189942       0.000000       0.000000    
   4.189942       4.773337       0.000000       0.000000    
   4.773337       5.437963       0.000000       0.000000    
   5.437963       6.195129       0.000000       0.000000    
   6.195129       7.057720       0.000000       0.000000    
   7.057720       8.040417       0.000000       0.000000    
   8.040417       9.159941       0.000000       0.000000    
   9.159941       10.43534       0.000000       0.000000    
   10.43534       11.88833       0.000000       0.000000    
   11.88833       13.54363       0.000000       0.000000    
   13.54363       15.42940       0.000000       0.000000    
   15.42940       17.57774       0.000000       0.000000    
   17.57774       20.02522       0.000000       0.000000    
   20.02522       22.81347       0.000000       0.000000    
   22.81347       25.98995       0.000000       0.000000    
   25.98995       29.60871       0.000000       0.000000    
   29.60871       33.73134       0.000000       0.000000    
   33.73134       38.42800       0.000000       0.000000    
   38.42800       43.77859       0.000000       0.000000    
   43.77859       49.87420       0.000000       0.000000    
   49.87420       56.81853       0.000000       0.000000    
   56.81853       64.72978       0.000000       0.000000    
   64.72978       73.74256       0.000000       0.000000    
   73.74256       84.01026       0.000000       0.000000    
   84.01026       95.70760       0.000000       0.000000    
   95.70760       109.0336       0.000000       0.000000    
